#  wavelength [um]       absorption coefficient [m-1]
3.465495608531995453e-01 1.000000000000000000e+08
3.485570890840652414e-01 1.000000000000000000e+08
3.505646173149309930e-01 9.857472769332991540e+07
3.525721455457967446e-01 9.716976939814142883e+07
3.545796737766624962e-01 9.441964084887962043e+07
3.565872020075282478e-01 9.307390385580319166e+07
3.585947302383939994e-01 9.174734727940967679e+07
3.606022584692597510e-01 9.043969774653181434e+07
3.626097867001255026e-01 8.915068578031437099e+07
3.646173149309912542e-01 8.662751578959313035e+07
3.666248431618570058e-01 8.539283779708778858e+07
3.686323713927227574e-01 8.297602356995899975e+07
3.706398996235884535e-01 8.179338928484031558e+07
3.726474278544542051e-01 8.062761075867663324e+07
3.746549560853199567e-01 7.834566344543714821e+07
3.766624843161857084e-01 7.722902440087237954e+07
3.786700125470514600e-01 7.612830050337526202e+07
3.806775407779172116e-01 7.504326491876205802e+07
3.826850690087829632e-01 7.291936747039745748e+07
3.846925972396487148e-01 7.085558121756842732e+07
3.867001254705144664e-01 6.984569624074427783e+07
3.887076537013802180e-01 6.786890197165755928e+07
3.907151819322459696e-01 6.690158530701431632e+07
3.927227101631116657e-01 6.500811616652667522e+07
3.947302383939774173e-01 6.408157348971724510e+07
3.967377666248431689e-01 6.316823656908986717e+07
3.987452948557089205e-01 6.226791718665877730e+07
4.007528230865746721e-01 6.138042980705706775e+07
4.027603513174404237e-01 5.964322209910541773e+07
4.047678795483061753e-01 5.879314377172113210e+07
4.067754077791719269e-01 5.795518137532193959e+07
4.087829360100376785e-01 5.795518137532193959e+07
4.107904642409034301e-01 5.712916222489905357e+07
4.127979924717691262e-01 5.631491609667493403e+07
4.148055207026348778e-01 5.551227519302453101e+07
4.168130489335006850e-01 5.472107410789586604e+07
4.188205771643663811e-01 5.472107410789586604e+07
4.208281053952321327e-01 5.394114979272349924e+07
4.228356336260978843e-01 5.317234152282837778e+07
4.248431618569636359e-01 5.317234152282837778e+07
4.268506900878293875e-01 5.241449086429546028e+07
4.288582183186951391e-01 5.166744164132453501e+07
4.308657465495608907e-01 5.166744164132453501e+07
4.328732747804266423e-01 5.093103990404580534e+07
4.348808030112923384e-01 5.093103990404580534e+07
4.368883312421580900e-01 5.093103990404580534e+07
4.388958594730238971e-01 5.093103990404580534e+07
4.409033877038895932e-01 5.020513389679434896e+07
4.429109159347553448e-01 4.948957402683670074e+07
4.449184441656210964e-01 4.948957402683670074e+07
4.469259723964868480e-01 4.948957402683670074e+07
4.489335006273525996e-01 4.948957402683670074e+07
4.509410288582183512e-01 4.948957402683670074e+07
4.529485570890841029e-01 4.878421283354320377e+07
4.549560853199498545e-01 4.878421283354320377e+07
4.569636135508155506e-01 4.878421283354320377e+07
4.589711417816813022e-01 4.808890495799971372e+07
4.609786700125471093e-01 4.878421283354320377e+07
4.629861982434128054e-01 4.808890495799971372e+07
4.649937264742785570e-01 4.808890495799971372e+07
4.670012547051443086e-01 4.808890495799971372e+07
4.690087829360100602e-01 4.740350711305244267e+07
4.710163111668758118e-01 4.808890495799971372e+07
4.730238393977415634e-01 4.740350711305244267e+07
4.750313676286073150e-01 4.740350711305244267e+07
4.770388958594730666e-01 4.672787805377962440e+07
4.790464240903387627e-01 4.740350711305244267e+07
4.810539523212045143e-01 4.672787805377962440e+07
4.830614805520703214e-01 4.672787805377962440e+07
4.850690087829360175e-01 4.606187854838453233e+07
4.870765370138017691e-01 4.672787805377962440e+07
4.890840652446675207e-01 4.606187854838453233e+07
4.910915934755332724e-01 4.606187854838453233e+07
4.930991217063990240e-01 4.606187854838453233e+07
4.951066499372647756e-01 4.606187854838453233e+07
4.971141781681305272e-01 4.540537134950239956e+07
4.991217063989962788e-01 4.540537134950239956e+07
5.011292346298619194e-01 4.475822116591722518e+07
5.031367628607277265e-01 4.475822116591722518e+07
5.051442910915935336e-01 4.475822116591722518e+07
5.071518193224592297e-01 4.475822116591722518e+07
5.091593475533249258e-01 4.475822116591722518e+07
5.111668757841907329e-01 4.412029463468125463e+07
5.131744040150565400e-01 4.349146029363180697e+07
5.151819322459222361e-01 4.412029463468125463e+07
5.171894604767879322e-01 4.349146029363180697e+07
5.191969887076537393e-01 4.349146029363180697e+07
5.212045169385195464e-01 4.287158855430025607e+07
5.232120451693851315e-01 4.349146029363180697e+07
5.252195734002509386e-01 4.287158855430025607e+07
5.272271016311167458e-01 4.287158855430025607e+07
5.292346298619824418e-01 4.226055167520626634e+07
5.312421580928481379e-01 4.226055167520626634e+07
5.332496863237139451e-01 4.165822373553355038e+07
5.352572145545797522e-01 4.106448060918032378e+07
5.372647427854454483e-01 4.106448060918032378e+07
5.392722710163111444e-01 4.047919993917977065e+07
5.412797992471769515e-01 3.990226111248502135e+07
5.432873274780427586e-01 3.990226111248502135e+07
5.452948557089083437e-01 3.990226111248502135e+07
5.473023839397741508e-01 3.933354523511358351e+07
5.493099121706399579e-01 3.933354523511358351e+07
5.513174404015056540e-01 3.822031520107351243e+07
5.533249686323713501e-01 3.767557163299051672e+07
5.553324968632371572e-01 3.767557163299051672e+07
5.573400250941029643e-01 3.713859214412584901e+07
5.593475533249686604e-01 3.660926607520847023e+07
5.613550815558343565e-01 3.608748434416335821e+07
5.633626097867001636e-01 3.557313942363209277e+07
5.653701380175659708e-01 3.506612531881392747e+07
5.673776662484315558e-01 3.456633754562263936e+07
5.693851944792973629e-01 3.407367310915477574e+07
5.713927227101631701e-01 3.358803048246470094e+07
5.734002509410288662e-01 3.263741176518832892e+07
5.754077791718945623e-01 3.217223977368521318e+07
5.774153074027603694e-01 3.126169119830705971e+07
5.794228356336261765e-01 3.081612697106086835e+07
5.814303638644918726e-01 2.994395951521825045e+07
5.834378920953575687e-01 2.868177238912742585e+07
5.854454203262233758e-01 2.827297903020304441e+07
5.874529485570891829e-01 2.747278852563318238e+07
5.894604767879547680e-01 2.669524525759682059e+07
5.914680050188205751e-01 2.631476531974257901e+07
5.934755332496863822e-01 2.556999677885595709e+07
5.954830614805520783e-01 2.484630690512652323e+07
5.974905897114177744e-01 2.379899421788441390e+07
5.994981179422835815e-01 2.345979374403088912e+07
6.015056461731493886e-01 2.279582748235437647e+07
6.035131744040149737e-01 2.183494587408903986e+07
6.055207026348807808e-01 2.121696655406127498e+07
6.075282308657465880e-01 2.091456700545078143e+07
6.095357590966123951e-01 2.032263652981629968e+07
6.115432873274780912e-01 1.974745905164494738e+07
6.135508155583437873e-01 1.891507118472559750e+07
6.155583437892095944e-01 1.864547991334277019e+07
6.175658720200752905e-01 1.811776983497191221e+07
6.195734002509409866e-01 1.760499516872823611e+07
6.215809284818067937e-01 1.686291567701746896e+07
6.235884567126726008e-01 1.662257320977580920e+07
6.255959849435381859e-01 1.615211605597638898e+07
6.276035131744039930e-01 1.592190441888934374e+07
6.296110414052698001e-01 1.547127780762726627e+07
6.316185696361356072e-01 1.525076996954715811e+07
6.336260978670013033e-01 1.481913801084994711e+07
6.356336260978669994e-01 1.439972223193521611e+07
6.376411543287328065e-01 1.399217688674435392e+07
6.396486825595985026e-01 1.359616601462950371e+07
6.416562107904641987e-01 1.340238362565409951e+07
6.436637390213300058e-01 1.321136316340396553e+07
6.456712672521958130e-01 1.283745112023063563e+07
6.476787954830613980e-01 1.265448248453167826e+07
6.496863237139272051e-01 1.247412165012723021e+07
6.516938519447930123e-01 1.212107524187226407e+07
6.537013801756588194e-01 1.194831691317919083e+07
6.557089084065245155e-01 1.177802086110246927e+07
6.577164366373902116e-01 1.161015199149534851e+07
6.597239648682560187e-01 1.128155791690975428e+07
6.617314930991217148e-01 1.112076499615909345e+07
6.637390213299874109e-01 1.096226381237897649e+07
6.657465495608532180e-01 1.065200646730455756e+07
6.677540777917190251e-01 1.050018636902135983e+07
6.697616060225846102e-01 1.035053012055492960e+07
6.717691342534504173e-01 1.020300688115311228e+07
6.737766624843162244e-01 1.005758624962839484e+07
6.757841907151820315e-01 9.772933365783091635e+06
6.777917189460477276e-01 9.633642452971262857e+06
6.797992471769134237e-01 9.496336814965451136e+06
6.818067754077792308e-01 9.360988156193632632e+06
6.838143036386449269e-01 9.227568584372736514e+06
6.858218318695106230e-01 9.096050604760682210e+06
6.878293601003764302e-01 8.966407114490313455e+06
6.898368883312422373e-01 8.838611396984186023e+06
6.918444165621078223e-01 8.712637116448784247e+06
6.938519447929736295e-01 8.588458312447380275e+06
6.958594730238394366e-01 8.345385137060610577e+06
6.978670012547052437e-01 8.226440673817124218e+06
6.998745294855709398e-01 8.109191493068564683e+06
7.018820577164366359e-01 7.993613432423011400e+06
7.038895859473024430e-01 7.879682673868426122e+06
7.058971141781682501e-01 7.767375738864297979e+06
7.079046424090338352e-01 7.656669483503253199e+06
7.099121706398996423e-01 7.547541093741621822e+06
7.119196988707654494e-01 7.439968080697977915e+06
7.139272271016310345e-01 7.333928276018694974e+06
7.159347553324968416e-01 7.229399827309538610e+06
7.179422835633626487e-01 7.024791141066313721e+06
7.199498117942284559e-01 6.924668738331281580e+06
7.219573400250942630e-01 6.924668738331281580e+06
7.239648682559598480e-01 6.825973352475204505e+06
7.259723964868256552e-01 6.728684644621681422e+06
7.279799247176914623e-01 6.632782565778725781e+06
7.299874529485570473e-01 6.538247352707039565e+06
7.319949811794228545e-01 6.445059523847316392e+06
7.340025094102886616e-01 6.262649476895389147e+06
7.360100376411542467e-01 6.173389668237379752e+06
7.380175658720200538e-01 6.173389668237379752e+06
7.400250941028858609e-01 6.085402054913159460e+06
7.420326223337516680e-01 5.998668504674949683e+06
7.440401505646174751e-01 5.913171143708877265e+06
7.460476787954830602e-01 5.828892352951575071e+06
7.480552070263488673e-01 5.745814764459346421e+06
7.500627352572146744e-01 5.663921257828945294e+06
7.520702634880802595e-01 5.583194956669509411e+06
7.540777917189460666e-01 5.583194956669509411e+06
7.560853199498118737e-01 5.503619225124698132e+06
7.580928481806774588e-01 5.425177664444424212e+06
7.601003764115432659e-01 5.347854109605436213e+06
7.621079046424090730e-01 5.271632625980110839e+06
7.641154328732748802e-01 5.196497506052631885e+06
7.661229611041406873e-01 5.122433266182061285e+06
7.681304893350062724e-01 5.049424643411512487e+06
7.701380175658720795e-01 5.049424643411512487e+06
7.721455457967378866e-01 4.977456592322792858e+06
7.741530740276034717e-01 4.906514281935891137e+06
7.761606022584692788e-01 4.836583092652646825e+06
7.781681304893350859e-01 4.767648613243980333e+06
7.801756587202006710e-01 4.767648613243980333e+06
7.821831869510664781e-01 4.699696637880072929e+06
7.841907151819322852e-01 4.632713163202853873e+06
7.861982434127980923e-01 4.566684385440263897e+06
7.882057716436638994e-01 4.501596697561556473e+06
7.902132998745294845e-01 4.501596697561556473e+06
7.922208281053952916e-01 4.437436686473236419e+06
7.942283563362610987e-01 4.374191130254914053e+06
7.962358845671266838e-01 4.311846995434562676e+06
7.982434127979924909e-01 4.250391434302647598e+06
8.002509410288582981e-01 4.250391434302647598e+06
8.022584692597238831e-01 4.189811782264454290e+06
8.042659974905896902e-01 4.130095555230238475e+06
8.062735257214554974e-01 4.130095555230238475e+06
8.082810539523213045e-01 4.071230447042529471e+06
8.102885821831871116e-01 4.013204326940111350e+06
8.122961104140526967e-01 3.956005237058148254e+06
8.143036386449185038e-01 3.956005237058148254e+06
8.163111668757843109e-01 3.899621389963939786e+06
8.183186951066498960e-01 3.844041166227800772e+06
8.203262233375157031e-01 3.844041166227800772e+06
8.223337515683815102e-01 3.789253112028557807e+06
8.243412797992470953e-01 3.735245936793172732e+06
8.263488080301129024e-01 3.682008510870039929e+06
8.283563362609787095e-01 3.682008510870039929e+06
8.303638644918445166e-01 3.629529863235373516e+06
8.323713927227103238e-01 3.577799179232358932e+06
8.343789209535759088e-01 3.577799179232358932e+06
8.363864491844417159e-01 3.526805798342490103e+06
8.383939774153075231e-01 3.476539211988672614e+06
8.404015056461731081e-01 3.476539211988672614e+06
8.424090338770389153e-01 3.426989061369671486e+06
8.444165621079047224e-01 3.378145135325356387e+06
8.464240903387703074e-01 3.329997368232441135e+06
8.484316185696361146e-01 3.329997368232441135e+06
8.504391468005019217e-01 3.282535837930181064e+06
8.524466750313677288e-01 3.235750763675641268e+06
8.544542032622335359e-01 3.235750763675641268e+06
8.564617314930991210e-01 3.235750763675641268e+06
8.584692597239649281e-01 3.189632504128106404e+06
8.604767879548307352e-01 3.144171555362220854e+06
8.624843161856963203e-01 3.144171555362220854e+06
8.644918444165621274e-01 3.099358548909444828e+06
8.664993726474279345e-01 3.099358548909444828e+06
8.685069008782935196e-01 3.055184249827426393e+06
8.705144291091593267e-01 3.011639554796889890e+06
8.725219573400251338e-01 2.968715490245647263e+06
8.745294855708909409e-01 2.968715490245647263e+06
8.765370138017567481e-01 2.926403210499350913e+06
8.785445420326223331e-01 2.926403210499350913e+06
8.805520702634881403e-01 2.884693995958599262e+06
8.825595984943539474e-01 2.884693995958599262e+06
8.845671267252195324e-01 2.843579251302026678e+06
8.865746549560853396e-01 2.803050503714996390e+06
8.885821831869511467e-01 2.763099401143569965e+06
8.905897114178167318e-01 2.763099401143569965e+06
8.925972396486825389e-01 2.723717710573303513e+06
8.946047678795483460e-01 2.723717710573303513e+06
8.966122961104141531e-01 2.684897316332633607e+06
8.986198243412799602e-01 2.646630218420416117e+06
9.006273525721455453e-01 2.646630218420416117e+06
9.026348808030113524e-01 2.608908530857302714e+06
9.046424090338771595e-01 2.571724480060639791e+06
9.066499372647427446e-01 2.571724480060639791e+06
9.086574654956085517e-01 2.535070403242480475e+06
9.106649937264743588e-01 2.535070403242480475e+06
9.126725219573399439e-01 2.498938746830475517e+06
9.146800501882057510e-01 2.463322064911251888e+06
9.166875784190715581e-01 2.463322064911251888e+06
9.186951066499373653e-01 2.428213017695978284e+06
9.207026348808031724e-01 2.428213017695978284e+06
9.227101631116687575e-01 2.393604370007799473e+06
9.247176913425345646e-01 2.359488989790833090e+06
9.267252195734003717e-01 2.359488989790833090e+06
9.287327478042659568e-01 2.325859846640414558e+06
9.307402760351317639e-01 2.325859846640414558e+06
9.327478042659975710e-01 2.292710010354289319e+06
9.347553324968631561e-01 2.292710010354289319e+06
9.367628607277289632e-01 2.260032649504452012e+06
9.387703889585947703e-01 2.260032649504452012e+06
9.407779171894605774e-01 2.227821030029362533e+06
9.427854454203263845e-01 2.196068513846181799e+06
9.447929736511919696e-01 2.196068513846181799e+06
9.468005018820577767e-01 2.164768557482830714e+06
9.488080301129235838e-01 2.164768557482830714e+06
9.508155583437891689e-01 2.133914710729526356e+06
9.528230865746549760e-01 2.133914710729526356e+06
9.548306148055207832e-01 2.103500615309535060e+06
9.568381430363863682e-01 2.103500615309535060e+06
9.588456712672521753e-01 2.073520003568893066e+06
9.608531994981179825e-01 2.073520003568893066e+06
9.628607277289837896e-01 2.043966697184761055e+06
9.648682559598495967e-01 2.043966697184761055e+06
9.668757841907151818e-01 2.014834605892227264e+06
9.688833124215809889e-01 1.986117726229239954e+06
9.708908406524467960e-01 1.986117726229239954e+06
9.728983688833123811e-01 1.957810140299428953e+06
9.749058971141781882e-01 1.957810140299428953e+06
9.769134253450439953e-01 1.957810140299428953e+06
9.789209535759095804e-01 1.929906014552562265e+06
9.809284818067753875e-01 1.929906014552562265e+06
9.829360100376411946e-01 1.902399598582384177e+06
9.849435382685070017e-01 1.875285223941586446e+06
9.869510664993728088e-01 1.875285223941586446e+06
9.889585947302383939e-01 1.875285223941586446e+06
9.909661229611042010e-01 1.848557302973670885e+06
9.929736511919700082e-01 1.848557302973670885e+06
9.949811794228355932e-01 1.848557302973670885e+06
9.969887076537014003e-01 1.822210327661455842e+06
9.989962358845672075e-01 1.822210327661455842e+06
1.001003764115432793e+00 1.796238868492014939e+06
1.003011292346298822e+00 1.796238868492014939e+06
1.005018820577164407e+00 1.796238868492014939e+06
1.007026348808029992e+00 1.770637573337754002e+06
1.009033877038896021e+00 1.770637573337754002e+06
1.011041405269761606e+00 1.745401166353475768e+06
1.013048933500627413e+00 1.720524446889142971e+06
1.015056461731493220e+00 1.720524446889142971e+06
1.017063989962358805e+00 1.720524446889142971e+06
1.019071518193224613e+00 1.696002288418139797e+06
1.021079046424090420e+00 1.671829637480824953e+06
1.023086574654956227e+00 1.671829637480824953e+06
1.025094102885821812e+00 1.648001512643107679e+06
1.027101631116687619e+00 1.648001512643107679e+06
1.029109159347553426e+00 1.648001512643107679e+06
1.031116687578419011e+00 1.624513003469901392e+06
1.033124215809284818e+00 1.624513003469901392e+06
1.035131744040150625e+00 1.601359269513190258e+06
1.037139272271016432e+00 1.578535539314524503e+06
1.039146800501882018e+00 1.578535539314524503e+06
1.041154328732747825e+00 1.578535539314524503e+06
1.043161856963613632e+00 1.578535539314524503e+06
1.045169385194479217e+00 1.556037109421729110e+06
1.047176913425345246e+00 1.556037109421729110e+06
1.049184441656210831e+00 1.533859343419631477e+06
1.051191969887076416e+00 1.533859343419631477e+06
1.053199498117942445e+00 1.511997670974599663e+06
1.055207026348808030e+00 1.511997670974599663e+06
1.057214554579673838e+00 1.511997670974599663e+06
1.059222082810539645e+00 1.490447586892702151e+06
1.061229611041405230e+00 1.490447586892702151e+06
1.063237139272271037e+00 1.469204650191284716e+06
1.065244667503136844e+00 1.469204650191284716e+06
1.067252195734002651e+00 1.448264483183799079e+06
1.069259723964868236e+00 1.448264483183799079e+06
1.071267252195734043e+00 1.448264483183799079e+06
1.073274780426599850e+00 1.427622770577641670e+06
1.075282308657465435e+00 1.427622770577641670e+06
1.077289836888331243e+00 1.427622770577641670e+06
1.079297365119197050e+00 1.407275258584882366e+06
1.081304893350062857e+00 1.407275258584882366e+06
1.083312421580928442e+00 1.407275258584882366e+06
1.085319949811794249e+00 1.407275258584882366e+06
1.087327478042660056e+00 1.387217754045652226e+06
1.089335006273525641e+00 1.367446123564025853e+06
1.091342534504391670e+00 1.367446123564025853e+06
1.093350062735257255e+00 1.367446123564025853e+06
1.095357590966122840e+00 1.367446123564025853e+06
1.097365119196988870e+00 1.347956292656234233e+06
1.099372647427854455e+00 1.347956292656234233e+06
1.101380175658720262e+00 1.347956292656234233e+06
1.103387703889586069e+00 1.328744244910988025e+06
1.105395232120451654e+00 1.309806021161799086e+06
1.107402760351317461e+00 1.328744244910988025e+06
1.109410288582183268e+00 1.309806021161799086e+06
1.111417816813049075e+00 1.309806021161799086e+06
1.113425345043914660e+00 1.309806021161799086e+06
1.115432873274780468e+00 1.291137718671082519e+06
1.117440401505646275e+00 1.272735490325891646e+06
1.119447929736511860e+00 1.291137718671082519e+06
1.121455457967377667e+00 1.272735490325891646e+06
1.123462986198243474e+00 1.272735490325891646e+06
1.125470514429109281e+00 1.254595543845114997e+06
1.127478042659974866e+00 1.254595543845114997e+06
1.129485570890840673e+00 1.254595543845114997e+06
1.131493099121706480e+00 1.236714140997973504e+06
1.133500627352572065e+00 1.236714140997973504e+06
1.135508155583438095e+00 1.236714140997973504e+06
1.137515683814303680e+00 1.236714140997973504e+06
1.139523212045169265e+00 1.219087596833656542e+06
1.141530740276035294e+00 1.201712278921936406e+06
1.143538268506900879e+00 1.219087596833656542e+06
