#Vasileska2010
#  wavelength [um]       absorption coefficient [m-1]
1.109725685785536209e+00 3.259675768089672551e+06
1.111720698254364148e+00 3.259675768089672551e+06
1.113715710723192087e+00 3.259675768089672551e+06
1.115710723192020026e+00 3.212927148784266785e+06
1.117705735660847965e+00 3.166848974505429156e+06
1.119700748129675905e+00 3.121431630070086569e+06
1.121695760598503844e+00 3.076665638191226404e+06
1.123690773067331561e+00 3.032541657500313595e+06
1.125685785536159722e+00 2.989050480597964954e+06
1.127680798004987661e+00 2.946183032132676337e+06
1.129675810473815600e+00 2.862283668011122383e+06
1.131670822942643317e+00 2.821234244982657023e+06
1.133665835411471257e+00 2.780773531993597280e+06
1.135660847880299418e+00 2.740893086062645074e+06
1.137655860349127357e+00 2.701584585293486249e+06
1.139650872817955074e+00 2.662839827138207853e+06
1.141645885286783013e+00 2.624650726685702335e+06
1.143640897755610952e+00 2.587009314974568784e+06
1.145635910224439113e+00 2.513338251725719310e+06
1.147630922693266831e+00 2.477293227166569792e+06
1.149625935162094770e+00 2.441765142097992357e+06
1.151620947630922709e+00 2.406746582835559268e+06
1.153615960099750648e+00 2.372230242018170655e+06
1.155610972568578587e+00 2.338208917083185166e+06
1.157605985037406526e+00 2.304675508763466496e+06
1.159600997506234465e+00 2.239044552511635236e+06
1.161596009975062405e+00 2.206933309296004940e+06
1.163591022443890344e+00 2.206933309296004940e+06
1.165586034912718283e+00 2.144085787845656276e+06
1.167581047381546222e+00 2.113336395149804652e+06
1.169576059850374161e+00 2.083027994673818117e+06
1.171571072319202100e+00 2.053154261930583278e+06
1.173566084788029817e+00 1.994685953906029928e+06
1.175561097256857979e+00 1.966079177978847874e+06
1.177556109725685918e+00 1.966079177978847874e+06
1.179551122194513857e+00 1.910090534012743970e+06
1.181546134663341574e+00 1.882696982762165368e+06
1.183541147132169513e+00 1.855696295952698682e+06
1.185536159600997674e+00 1.829082839321462903e+06
1.187531172069825613e+00 1.802851059409311274e+06
1.189526184538653331e+00 1.751510712987986160e+06
1.191521197007481270e+00 1.726391433232502546e+06
1.193516209476309209e+00 1.701632401467942167e+06
1.195511221945137370e+00 1.653174490029742010e+06
1.197506234413965087e+00 1.629465498590660514e+06
1.199501246882793026e+00 1.606096529501584591e+06
1.201496259351620965e+00 1.583062706334130140e+06
1.203491271820448905e+00 1.537981340723981615e+06
1.205486284289276844e+00 1.515924391103354516e+06
1.207481296758104783e+00 1.494183771085492568e+06
1.209476309226932722e+00 1.472754944031402702e+06
1.211471321695760661e+00 1.430814846636413364e+06
1.213466334164588378e+00 1.410294824609456351e+06
1.215461346633416539e+00 1.410294824609456351e+06
1.217456359102244479e+00 1.390069090347947786e+06
1.219451371571072418e+00 1.350483663545457181e+06
1.221446384039900135e+00 1.331115710670114728e+06
1.223441396508728074e+00 1.312025523167804116e+06
1.225436408977556235e+00 1.293209117468198761e+06
1.227431421446384174e+00 1.274662567131310701e+06
1.229426433915211891e+00 1.256382002028176328e+06
1.231421446384039831e+00 1.238363607533251401e+06
1.233416458852867770e+00 1.220603623728427570e+06
1.235411471321695931e+00 1.203098344618440606e+06
1.237406483790523648e+00 1.203098344618440606e+06
1.239401496259351587e+00 1.168837341487169499e+06
1.241396508728179526e+00 1.152074468184850644e+06
1.243391521197007465e+00 1.135551999523428269e+06
1.245386533665835405e+00 1.119266487741278484e+06
1.247381546134663344e+00 1.103214534522818401e+06
1.249376558603491283e+00 1.087392790289396420e+06
1.251371571072319222e+00 1.071797953500315081e+06
1.253366583541147161e+00 1.041276032158456626e+06
1.255361596009975100e+00 1.026342578562931041e+06
1.257356608478803039e+00 1.011623292997211916e+06
1.259351620947630979e+00 9.971151039718588581e+05
1.261346633416458918e+00 9.828149840471784119e+05
1.263341645885286635e+00 9.687199492014900316e+05
1.265336658354114796e+00 9.411334120232341811e+05
1.267331670822942735e+00 9.276361531777440105e+05
1.269326683291770674e+00 9.143324651841808809e+05
1.271321695760598391e+00 8.882947371856201207e+05
1.273316708229426331e+00 8.755552638594037853e+05
1.275311720698254492e+00 8.629984936089072144e+05
1.277306733167082431e+00 8.506218061991329305e+05
1.279301745635910148e+00 8.263983863132410916e+05
1.281296758104738087e+00 8.145465991095707286e+05
1.283291770573566026e+00 8.028647842367351986e+05
1.285286783042394188e+00 7.913505040376355173e+05
1.287281795511221905e+00 7.800013558148101438e+05
1.289276807980049844e+00 7.577890163053245051e+05
1.291271820448877783e+00 7.469211899454541272e+05
1.293266832917705722e+00 7.362092244482325623e+05
1.295261845386533661e+00 7.152439669886777410e+05
1.297256857855361600e+00 7.049863001831115689e+05
1.299251870324189539e+00 6.948757436408251524e+05
1.301246882793017479e+00 6.849101875809144694e+05
1.303241895261845418e+00 6.750875524798844708e+05
1.305236907730673357e+00 6.558628757501287619e+05
1.307231920199501296e+00 6.464568224870569538e+05
1.309226932668329235e+00 6.371856660770620219e+05
1.311221945137157174e+00 6.190403330722283572e+05
1.313216957605984891e+00 6.101623700708820252e+05
1.315211970074813053e+00 5.927865878124410519e+05
1.317206982543640992e+00 5.842851427318345523e+05
1.319201995012468931e+00 5.676462742683941033e+05
1.321197007481296648e+00 5.595053788346567890e+05
1.323192019950124587e+00 5.514812360010275152e+05
1.325187032418952748e+00 5.357765345209008083e+05
1.327182044887780688e+00 5.280926987571476493e+05
1.329177057356608405e+00 5.205190606751509476e+05
1.331172069825436344e+00 5.056960786243093316e+05
1.333167082294264283e+00 4.984436415275673498e+05
1.335162094763092444e+00 4.773044496334274882e+05
1.337157107231920161e+00 4.704591909033639240e+05
1.339152119700748100e+00 4.570617792247814941e+05
1.341147132169576039e+00 4.440458897763019195e+05
1.343142144638403979e+00 4.314006578315444640e+05
1.345137157107231918e+00 4.191155280623032013e+05
1.347132169576059857e+00 4.131047853810290690e+05
1.349127182044887796e+00 4.013406728221590747e+05
1.351122194513715735e+00 3.955848481143119279e+05
1.353117206982543674e+00 3.788079383134879754e+05
1.355112219451371613e+00 3.733752666743509471e+05
1.357107231920199553e+00 3.575402740028302651e+05
1.359102244389027492e+00 3.374666542183911079e+05
1.361097256857855431e+00 3.278565120811397210e+05
1.363092269326683148e+00 3.050114800686083618e+05
1.365087281795511309e+00 2.920758226142860367e+05
1.367082294264339248e+00 2.639860200533695170e+05
1.369077306733167188e+00 2.318030772198046034e+05
1.371072319201994905e+00 1.977472324326481321e+05
1.373067331670822844e+00 1.142132360203112767e+05
1.375062344139651005e+00 7.298559271495362918e+04
1.377057356608478944e+00 5.013320508132029499e+04
1.379052369077306661e+00 3.978772054710008524e+04
1.381047381546134600e+00 2.854026277225864033e+04
1.383042394014962539e+00 2.169007125168939820e+04
1.385037406483790701e+00 1.624764660045783239e+04
1.387032418952618418e+00 1.100031875293986013e+04
1.389027431421446357e+00 8.005486028095562688e+03
1.391022443890274296e+00 6.731399950810877272e+03
1.393017456359102235e+00 4.970056834458712729e+03
1.395012468827930174e+00 3.669588067601628609e+03
1.397007481296758113e+00 3.085567178689593675e+03
1.399002493765586053e+00 2.709400925261414613e+03
1.400997506234413992e+00 2.089054700281233181e+03
1.402992518703241931e+00 1.634179937802498216e+03
1.404987531172069870e+00 1.657957525108756727e+03
1.406982543640897809e+00 1.657957525108756727e+03
1.408977556109725748e+00 1.634179937802498216e+03
