#  wavelength [um]       absorption coefficient [m-1]
1.115432873274780468e+00 3.329997368232441135e+06
1.117440401505646275e+00 3.329997368232441135e+06
1.119447929736511860e+00 3.329997368232441135e+06
1.121455457967377667e+00 3.282535837930181064e+06
1.123462986198243474e+00 3.235750763675641268e+06
1.125470514429109281e+00 3.189632504128106404e+06
1.127478042659974866e+00 3.144171555362220854e+06
1.129485570890840673e+00 3.099358548909444828e+06
1.131493099121706480e+00 3.055184249827426393e+06
1.133500627352572065e+00 3.011639554796889890e+06
1.135508155583438095e+00 2.926403210499350913e+06
1.137515683814303680e+00 2.884693995958599262e+06
1.139523212045169265e+00 2.843579251302026678e+06
1.141530740276035294e+00 2.803050503714996390e+06
1.143538268506900879e+00 2.763099401143569965e+06
1.145545796737766686e+00 2.723717710573303513e+06
1.147553324968632493e+00 2.684897316332633607e+06
1.149560853199498078e+00 2.646630218420416117e+06
1.151568381430363885e+00 2.571724480060639791e+06
1.153575909661229693e+00 2.535070403242480475e+06
1.155583437892095500e+00 2.498938746830475517e+06
1.157590966122961085e+00 2.463322064911251888e+06
1.159598494353826892e+00 2.428213017695978284e+06
1.161606022584692699e+00 2.393604370007799473e+06
1.163613550815558284e+00 2.359488989790833090e+06
1.165621079046424091e+00 2.292710010354289319e+06
1.167628607277289898e+00 2.260032649504452012e+06
1.169636135508155705e+00 2.260032649504452012e+06
1.171643663739021290e+00 2.196068513846181799e+06
1.173651191969887098e+00 2.164768557482830714e+06
1.175658720200752905e+00 2.133914710729526356e+06
1.177666248431618490e+00 2.103500615309535060e+06
1.179673776662484519e+00 2.043966697184761055e+06
1.181681304893350104e+00 2.014834605892227264e+06
1.183688833124215689e+00 2.014834605892227264e+06
1.185696361355081718e+00 1.957810140299428953e+06
1.187703889585947303e+00 1.929906014552562265e+06
1.189711417816813110e+00 1.902399598582384177e+06
1.191718946047678918e+00 1.875285223941586446e+06
1.193726474278544503e+00 1.848557302973670885e+06
1.195734002509410310e+00 1.796238868492014939e+06
1.197741530740276117e+00 1.770637573337754002e+06
1.199749058971141924e+00 1.745401166353475768e+06
1.201756587202007509e+00 1.696002288418139797e+06
1.203764115432873316e+00 1.671829637480824953e+06
1.205771643663739123e+00 1.648001512643107679e+06
1.207779171894604708e+00 1.624513003469901392e+06
1.209786700125470515e+00 1.578535539314524503e+06
1.211794228356336323e+00 1.556037109421729110e+06
1.213801756587202130e+00 1.533859343419631477e+06
1.215809284818067715e+00 1.511997670974599663e+06
1.217816813048933522e+00 1.469204650191284716e+06
1.219824341279799329e+00 1.448264483183799079e+06
1.221831869510664914e+00 1.448264483183799079e+06
1.223839397741530721e+00 1.427622770577641670e+06
1.225846925972396528e+00 1.387217754045652226e+06
1.227854454203262113e+00 1.367446123564025853e+06
1.229861982434127921e+00 1.347956292656234233e+06
1.231869510664993728e+00 1.328744244910988025e+06
1.233877038895859535e+00 1.309806021161799086e+06
1.235884567126725120e+00 1.291137718671082519e+06
1.237892095357590927e+00 1.272735490325891646e+06
1.239899623588456734e+00 1.254595543845114997e+06
1.241907151819322319e+00 1.236714140997973504e+06
1.243914680050188348e+00 1.236714140997973504e+06
1.245922208281053933e+00 1.201712278921936406e+06
1.247929736511919740e+00 1.184584606604605680e+06
1.249937264742785548e+00 1.167701050257593393e+06
1.251944792973651133e+00 1.151058130563576007e+06
1.253952321204516940e+00 1.134652417794978945e+06
1.255959849435382747e+00 1.118480531107184477e+06
1.257967377666248554e+00 1.102539137841815129e+06
1.259974905897114139e+00 1.071334737765148282e+06
1.261982434127979946e+00 1.056065300436045043e+06
1.263989962358845753e+00 1.041013494168577716e+06
1.265997490589711338e+00 1.026176217127494398e+06
1.268005018820577146e+00 1.011550411687141401e+06
1.270012547051442953e+00 9.971330638013572898e+05
1.272020075282308538e+00 9.689118986884013284e+05
1.274027603513174345e+00 9.551022657203641720e+05
1.276035131744040152e+00 9.414894576266732765e+05
1.278042659974905959e+00 9.148431348836508114e+05
1.280050188205771544e+00 9.018041290326816961e+05
1.282057716436637351e+00 8.889509645211696625e+05
1.284065244667503158e+00 8.762809926039727870e+05
1.286072772898368743e+00 8.514802197930250550e+05
1.288080301129234773e+00 8.393443080235414673e+05
1.290087829360100358e+00 8.273813660436684731e+05
1.292095357590966165e+00 8.155889285628993530e+05
1.294102885821831972e+00 8.039645654278250877e+05
1.296110414052697557e+00 7.812105142689874629e+05
1.298117942283563364e+00 7.700761371523166308e+05
1.300125470514429171e+00 7.591004552292098524e+05
1.302132998745294978e+00 7.376161618464650819e+05
1.304140526976160563e+00 7.271031229621445527e+05
1.306148055207026371e+00 7.167399235096302582e+05
1.308155583437892178e+00 7.065244278689990751e+05
1.310163111668757763e+00 6.964545308587229811e+05
1.312170639899623570e+00 6.767432615983288269e+05
1.314178168130489377e+00 6.670978273035105085e+05
1.316185696361354962e+00 6.575898667125557549e+05
1.318193224592220769e+00 6.389785570701359538e+05
1.320200752823086576e+00 6.298713726506552193e+05
1.322208281053952383e+00 6.120445603095496772e+05
1.324215809284817968e+00 6.033212586869769730e+05
1.326223337515683776e+00 5.862458757960997755e+05
1.328230865746549583e+00 5.778902756793813314e+05
1.330238393977415168e+00 5.696537656171836425e+05
1.332245922208281197e+00 5.535312504180463729e+05
1.334253450439146782e+00 5.456419227970732609e+05
1.336260978670012589e+00 5.378650395778632956e+05
1.338268506900878396e+00 5.226422186310318648e+05
1.340276035131743981e+00 5.151931438259176211e+05
1.342283563362609788e+00 4.934769057560375659e+05
1.344291091593475596e+00 4.864435160784843029e+05
1.346298619824341403e+00 4.726760428256741725e+05
1.348306148055206988e+00 4.592982208139668801e+05
1.350313676286072795e+00 4.462990220146980137e+05
1.352321204516938602e+00 4.336677305178416427e+05
1.354328732747804187e+00 4.274867844518061611e+05
1.356336260978669994e+00 4.153879226593499188e+05
1.358343789209535801e+00 4.094675136324340710e+05
1.360351317440401386e+00 3.922077847045809031e+05
1.362358845671267193e+00 3.866177557645822526e+05
1.364366373902133001e+00 3.703211816994122928e+05
1.366373902132998808e+00 3.496559297479120432e+05
1.368381430363864393e+00 3.397598606229735306e+05
1.370388958594730200e+00 3.162277660168379080e+05
1.372396486825596007e+00 3.028982457516217837e+05
1.374404015056461592e+00 2.739402579373138724e+05
1.376411543287327621e+00 2.407388239884087816e+05
1.378419071518193206e+00 2.055737134830381547e+05
1.380426599749059013e+00 1.191406185090796644e+05
1.382434127979924821e+00 7.634718300599955546e+04
1.384441656210790406e+00 5.256519191578742902e+04
1.386449184441656213e+00 4.177799859200380888e+04
1.388456712672522020e+00 3.003005376339978466e+04
1.390464240903387827e+00 2.286136957032609280e+04
1.392471769134253412e+00 1.715591813071706565e+04
1.394479297365119219e+00 1.164353325847416818e+04
1.396486825595985026e+00 8.490390803284713911e+03
1.398494353826850611e+00 7.146850758779080934e+03
1.400501882057716641e+00 5.286789514213018265e+03
1.402509410288582226e+00 3.910833500092218856e+03
1.404516938519447811e+00 3.291973716543118826e+03
1.406524466750313840e+00 2.892988008000970694e+03
1.408531994981179425e+00 2.234226414613381166e+03
1.416562107904642431e+00 1.250419507402056979e+03

