#  wavelength [um]       absorption coefficient [m-1]
8.966122961104141531e-01 1.041013494168577716e+06
8.986198243412799602e-01 9.829212023823455675e+05
9.006273525721455453e-01 9.280706691169018159e+05
9.026348808030113524e-01 8.393443080235414673e+05
9.046424090338771595e-01 7.591004552292098524e+05
9.066499372647427446e-01 6.670978273035105085e+05
9.086574654956085517e-01 6.298713726506552193e+05
9.106649937264743588e-01 5.456419227970732609e+05
9.126725219573399439e-01 5.078502386211038101e+05
9.146800501882057510e-01 4.592982208139668801e+05
9.166875784190715581e-01 4.094675136324340710e+05
9.186951066499373653e-01 3.922077847045809031e+05
9.207026348808031724e-01 3.162277660168379080e+05
9.227101631116687575e-01 2.985811209375344333e+05
9.247176913425345646e-01 2.513329197878580017e+05
9.267252195734003717e-01 2.146203125251299352e+05
9.287327478042659568e-01 1.886084288244620548e+05
9.307402760351317639e-01 1.657491735292611411e+05
9.327478042659975710e-01 1.435843914701808244e+05
9.347553324968631561e-01 1.226107865100670606e+05
9.367628607277289632e-01 1.108888247243500664e+05
9.387703889585947703e-01 9.334150800393575628e+04
9.407779171894605774e-01 7.745107168190089578e+04
9.427854454203263845e-01 6.334985656605791883e+04
9.447929736511919696e-01 5.181599479246373085e+04
9.468005018820577767e-01 4.299485205200351629e+04
9.488080301129235838e-01 2.221434009274273922e+04
9.508155583437891689e-01 2.221434009274273922e+04
9.528230865746549760e-01 2.009058203626317118e+04
9.548306148055207832e-01 9.523640484613639273e+03
9.568381430363863682e-01 6.191139269520004746e+03
9.648682559598495967e-01 1.001696363014195640e+03

