#  wavelength [um]       absorption coefficient [m-1]
3.224592220828105815e-01 6.690158530701431632e+07
3.244667503136763331e-01 6.594805553891017288e+07
3.264742785445420292e-01 6.138042980705706775e+07
3.284818067754077808e-01 5.551227519302453101e+07
3.304893350062735324e-01 5.166744164132453501e+07
3.324968632371392840e-01 4.808890495799971372e+07
3.345043914680050356e-01 4.412029463468125463e+07
3.365119196988707873e-01 4.165822373553355038e+07
3.385194479297365389e-01 3.822031520107351243e+07
3.405269761606022350e-01 3.608748434416335821e+07
3.425345043914680421e-01 3.310930958564222232e+07
3.445420326223337382e-01 3.171369774975537881e+07
3.465495608531995453e-01 2.951717655272734165e+07
3.485570890840652414e-01 2.747278852563318238e+07
3.505646173149309930e-01 2.593970825707506388e+07
3.525721455457967446e-01 2.520555469595048949e+07
3.545796737766624962e-01 2.312542780059529468e+07
3.565872020075282478e-01 2.121696655406127498e+07
3.585947302383939994e-01 1.974745905164494738e+07
3.606022584692597510e-01 1.864547991334277019e+07
3.626097867001255026e-01 1.811776983497191221e+07
3.646173149309912542e-01 1.662257320977580920e+07
3.666248431618570058e-01 1.592190441888934374e+07
3.686323713927227574e-01 1.503340496861724369e+07
3.706398996235884535e-01 1.399217688674435392e+07
3.726474278544542051e-01 1.379275026447726414e+07
3.746549560853199567e-01 1.247412165012723021e+07
3.766624843161857084e-01 1.194831691317919083e+07
3.786700125470514600e-01 1.128155791690975428e+07
3.806775407779172116e-01 1.080602170207702182e+07
3.826850690087829632e-01 1.020300688115311228e+07
3.846925972396487148e-01 9.772933365783091635e+06
3.867001254705144664e-01 9.096050604760682210e+06
3.887076537013802180e-01 8.345385137060610577e+06
3.907151819322459696e-01 8.109191493068564683e+06
3.927227101631116657e-01 7.767375738864297979e+06
3.947302383939774173e-01 7.126361193632440642e+06
3.967377666248431689e-01 6.825973352475204505e+06
3.987452948557089205e-01 6.353199875305517577e+06
4.007528230865746721e-01 6.085402054913159460e+06
4.027603513174404237e-01 5.913171143708877265e+06
4.047678795483061753e-01 5.503619225124698132e+06
4.067754077791719269e-01 5.196497506052631885e+06
4.087829360100376785e-01 4.977456592322792858e+06
4.107904642409034301e-01 4.767648613243980333e+06
4.127979924717691262e-01 4.566684385440263897e+06
4.148055207026348778e-01 4.437436686473236419e+06
4.168130489335006850e-01 4.250391434302647598e+06
4.188205771643663811e-01 4.013204326940111350e+06
4.208281053952321327e-01 3.844041166227800772e+06
4.228356336260978843e-01 3.682008510870039929e+06
4.248431618569636359e-01 3.526805798342490103e+06
4.268506900878293875e-01 3.476539211988672614e+06
4.288582183186951391e-01 3.329997368232441135e+06
4.308657465495608907e-01 3.189632504128106404e+06
4.328732747804266423e-01 3.099358548909444828e+06
4.348808030112923384e-01 2.968715490245647263e+06
4.368883312421580900e-01 2.803050503714996390e+06
4.388958594730238971e-01 2.763099401143569965e+06
4.409033877038895932e-01 2.646630218420416117e+06
4.429109159347553448e-01 2.571724480060639791e+06
4.449184441656210964e-01 2.463322064911251888e+06
4.469259723964868480e-01 2.393604370007799473e+06
4.489335006273525996e-01 2.325859846640414558e+06
4.509410288582183512e-01 2.196068513846181799e+06
4.529485570890841029e-01 2.164768557482830714e+06
4.549560853199498545e-01 2.043966697184761055e+06
4.569636135508155506e-01 2.014834605892227264e+06
4.589711417816813022e-01 1.929906014552562265e+06
4.609786700125471093e-01 1.875285223941586446e+06
4.629861982434128054e-01 1.822210327661455842e+06
4.649937264742785570e-01 1.770637573337754002e+06
4.670012547051443086e-01 1.720524446889142971e+06
4.690087829360100602e-01 1.671829637480824953e+06
4.710163111668758118e-01 1.624513003469901392e+06
4.730238393977415634e-01 1.578535539314524503e+06
4.750313676286073150e-01 1.533859343419631477e+06
4.770388958594730666e-01 1.511997670974599663e+06
4.790464240903387627e-01 1.469204650191284716e+06
4.810539523212045143e-01 1.427622770577641670e+06
4.830614805520703214e-01 1.407275258584882366e+06
4.850690087829360175e-01 1.367446123564025853e+06
4.870765370138017691e-01 1.328744244910988025e+06
4.890840652446675207e-01 1.309806021161799086e+06
4.910915934755332724e-01 1.291137718671082519e+06
4.930991217063990240e-01 1.254595543845114997e+06
4.951066499372647756e-01 1.236714140997973504e+06
4.971141781681305272e-01 1.219087596833656542e+06
4.991217063989962788e-01 1.201712278921936406e+06
5.011292346298619194e-01 1.184584606604605680e+06
5.031367628607277265e-01 1.151058130563576007e+06
5.051442910915935336e-01 1.118480531107184477e+06
5.071518193224592297e-01 1.102539137841815129e+06
5.091593475533249258e-01 1.086824952839956386e+06
5.111668757841907329e-01 1.056065300436045043e+06
5.131744040150565400e-01 1.041013494168577716e+06
5.151819322459222361e-01 1.026176217127494398e+06
5.171894604767879322e-01 1.011550411687141401e+06
5.191969887076537393e-01 9.971330638013572898e+05
5.212045169385195464e-01 9.689118986884013284e+05
5.232120451693851315e-01 9.551022657203641720e+05
5.252195734002509386e-01 9.414894576266732765e+05
5.272271016311167458e-01 9.280706691169018159e+05
5.292346298619824418e-01 9.018041290326816961e+05
5.312421580928481379e-01 8.889509645211696625e+05
5.332496863237139451e-01 8.762809926039727870e+05
5.352572145545797522e-01 8.637916022877745563e+05
5.372647427854454483e-01 8.514802197930250550e+05
5.392722710163111444e-01 8.273813660436684731e+05
5.412797992471769515e-01 8.155889285628993530e+05
5.432873274780427586e-01 8.039645654278250877e+05
5.452948557089083437e-01 7.925058811213417212e+05
5.473023839397741508e-01 7.700761371523166308e+05
5.493099121706399579e-01 7.591004552292098524e+05
5.513174404015056540e-01 7.482812066610213369e+05
5.533249686323713501e-01 7.376161618464650819e+05
5.553324968632371572e-01 7.271031229621445527e+05
5.573400250941029643e-01 7.167399235096302582e+05
5.593475533249686604e-01 7.065244278689990751e+05
5.613550815558343565e-01 6.964545308587229811e+05
5.633626097867001636e-01 6.865281573018444469e+05
5.653701380175659708e-01 6.767432615983288269e+05
5.673776662484315558e-01 6.670978273035105085e+05
5.693851944792973629e-01 6.482174204508329276e+05
5.713927227101631701e-01 6.389785570701359538e+05
5.734002509410288662e-01 6.389785570701359538e+05
5.754077791718945623e-01 6.208939904086226597e+05
5.774153074027603694e-01 6.120445603095496772e+05
5.794228356336261765e-01 6.033212586869769730e+05
5.814303638644918726e-01 5.947222878666580655e+05
5.834378920953575687e-01 5.862458757960997755e+05
5.854454203262233758e-01 5.696537656171836425e+05
5.874529485570891829e-01 5.615346482519385172e+05
5.894604767879547680e-01 5.535312504180463729e+05
5.914680050188205751e-01 5.535312504180463729e+05
5.934755332496863822e-01 5.456419227970732609e+05
5.954830614805520783e-01 5.378650395778632956e+05
5.974905897114177744e-01 5.301989981214998988e+05
5.994981179422835815e-01 5.151931438259176211e+05
6.015056461731493886e-01 5.078502386211038101e+05
6.035131744040149737e-01 5.006119898106792825e+05
6.055207026348807808e-01 5.006119898106792825e+05
6.075282308657465880e-01 4.934769057560375659e+05
6.095357590966123951e-01 4.934769057560375659e+05
6.115432873274780912e-01 4.795103713562253979e+05
6.135508155583437873e-01 4.726760428256741725e+05
6.155583437892095944e-01 4.726760428256741725e+05
6.175658720200752905e-01 4.592982208139668801e+05
6.195734002509409866e-01 4.527519704676769907e+05
6.215809284818067937e-01 4.527519704676769907e+05
6.235884567126726008e-01 4.399380456489830976e+05
6.255959849435381859e-01 4.336677305178416427e+05
6.276035131744039930e-01 4.274867844518061611e+05
6.296110414052698001e-01 4.213939336983400863e+05
6.316185696361356072e-01 4.153879226593499188e+05
6.336260978670013033e-01 4.036314865558203892e+05
6.356336260978669994e-01 3.978786387569395010e+05
6.376411543287328065e-01 3.922077847045809031e+05
6.396486825595985026e-01 3.866177557645822526e+05
6.416562107904641987e-01 3.866177557645822526e+05
6.436637390213300058e-01 3.756755817287134123e+05
6.456712672521958130e-01 3.703211816994122928e+05
6.476787954830613980e-01 3.650430964509171899e+05
6.496863237139272051e-01 3.650430964509171899e+05
6.516938519447930123e-01 3.598402382897912757e+05
6.537013801756588194e-01 3.547115350251912023e+05
6.557089084065245155e-01 3.446723806125852279e+05
6.577164366373902116e-01 3.397598606229735306e+05
6.597239648682560187e-01 3.397598606229735306e+05
6.617314930991217148e-01 3.349173574203333701e+05
6.637390213299874109e-01 3.301438730747901136e+05
6.657465495608532180e-01 3.254384238796870341e+05
6.677540777917190251e-01 3.208000401488662465e+05
6.697616060225846102e-01 3.117206592417984502e+05
6.717691342534504173e-01 3.072777910114556435e+05
6.737766624843162244e-01 3.072777910114556435e+05
6.757841907151820315e-01 3.028982457516217837e+05
6.777917189460477276e-01 2.943255269078665879e+05
6.797992471769134237e-01 2.901305866813879693e+05
6.818067754077792308e-01 2.859954357762380969e+05
6.838143036386449269e-01 2.819192220317788888e+05
6.858218318695106230e-01 2.779011054329802282e+05
6.878293601003764302e-01 2.739402579373138724e+05
6.898368883312422373e-01 2.700358633041127468e+05
6.918444165621078223e-01 2.661871169263611664e+05
6.938519447929736295e-01 2.623932256648862385e+05
6.958594730238394366e-01 2.549668922949147818e+05
6.978670012547052437e-01 2.513329197878580017e+05
6.998745294855709398e-01 2.477507412845763029e+05
7.018820577164366359e-01 2.477507412845763029e+05
7.038895859473024430e-01 2.442196185794773919e+05
7.058971141781682501e-01 2.407388239884087816e+05
7.079046424090338352e-01 2.339253601213343791e+05
7.099121706398996423e-01 2.305912867452462378e+05
7.119196988707654494e-01 2.240650215825628256e+05
7.139272271016310345e-01 2.208714848810122057e+05
7.159347553324968416e-01 2.208714848810122057e+05
7.179422835633626487e-01 2.146203125251299352e+05
7.199498117942284559e-01 2.115613886462204391e+05
7.219573400250942630e-01 2.085460627622391912e+05
7.239648682559598480e-01 2.055737134830381547e+05
7.259723964868256552e-01 1.997555033346641576e+05
7.279799247176914623e-01 1.969084434645857255e+05
7.299874529485570473e-01 1.941019619503898721e+05
7.319949811794228545e-01 1.913354804400076391e+05
7.340025094102886616e-01 1.886084288244620548e+05
7.360100376411542467e-01 1.859202451203814126e+05
7.380175658720200538e-01 1.832703753541874758e+05
7.400250941028858609e-01 1.806582734479335486e+05
7.420326223337516680e-01 1.755452277080207714e+05
7.440401505646174751e-01 1.730432301918170706e+05
7.460476787954830602e-01 1.705768929533257033e+05
7.480552070263488673e-01 1.657491735292611411e+05
7.500627352572146744e-01 1.633867964604140434e+05
7.520702634880802595e-01 1.633867964604140434e+05
7.540777917189460666e-01 1.587625733475950256e+05
7.560853199498118737e-01 1.564997743563149706e+05
7.580928481806774588e-01 1.542692264124132344e+05
7.601003764115432659e-01 1.520704698506429268e+05
7.621079046424090730e-01 1.499030515572386212e+05
7.641154328732748802e-01 1.477665248765399156e+05
7.661229611041406873e-01 1.456604495189455047e+05
7.681304893350062724e-01 1.415379229018555488e+05
7.701380175658720795e-01 1.395206220832993567e+05
7.721455457967378866e-01 1.375320732946522476e+05
7.741530740276034717e-01 1.355718667411940696e+05
7.761606022584692788e-01 1.336395984688961471e+05
7.781681304893350859e-01 1.298572896568285360e+05
7.801756587202006710e-01 1.280064696691573918e+05
7.821831869510664781e-01 1.243835913922220934e+05
7.841907151819322852e-01 1.226107865100670606e+05
7.861982434127980923e-01 1.226107865100670606e+05
7.882057716436638994e-01 1.191406185090796644e+05
7.902132998745294845e-01 1.174425402674740471e+05
7.922208281053952916e-01 1.157686642647918779e+05
7.942283563362610987e-01 1.141186455532239197e+05
7.962358845671266838e-01 1.108888247243500664e+05
7.982434127979924909e-01 1.093083570143617399e+05
8.002509410288582981e-01 1.077504152729599737e+05
8.022584692597238831e-01 1.062146784437524475e+05
8.042659974905896902e-01 1.047008300462749612e+05
8.062735257214554974e-01 1.017375551139053568e+05
8.082810539523213045e-01 1.002875179153836361e+05
8.102885821831871116e-01 9.744914989349804819e+04
8.122961104140526967e-01 9.606023414698059787e+04
8.143036386449185038e-01 9.469111423196124088e+04
8.163111668757843109e-01 9.201113733972741466e+04
8.183186951066498960e-01 9.069972808017190255e+04
8.203262233375157031e-01 8.940700997362013732e+04
8.223337515683815102e-01 8.813271662024436228e+04
8.243412797992470953e-01 8.563835750420890690e+04
8.263488080301129024e-01 8.441777771081413084e+04
8.283563362609787095e-01 8.321459450319557800e+04
8.303638644918445166e-01 8.085942958435360924e+04
8.323713927227103238e-01 7.970696252715641458e+04
8.343789209535759088e-01 7.857092126376894885e+04
8.363864491844417159e-01 7.634718300599955546e+04
8.383939774153075231e-01 7.525902774969230813e+04
8.404015056461731081e-01 7.312902371565913199e+04
8.424090338770389153e-01 7.208673599250163534e+04
8.444165621079047224e-01 7.004651513056085969e+04
8.464240903387703074e-01 6.904816154861749965e+04
8.484316185696361146e-01 6.709393935044764658e+04
8.504391468005019217e-01 6.613766801343168481e+04
8.524466750313677288e-01 6.519502614695884404e+04
8.544542032622335359e-01 6.334985656605791883e+04
8.564617314930991210e-01 6.155690953929183161e+04
8.584692597239649281e-01 6.067955595478634496e+04
8.604767879548307352e-01 5.981470704795239726e+04
8.624843161856963203e-01 5.812181290466907376e+04
8.644918444165621274e-01 5.729341880120422138e+04
8.664993726474279345e-01 5.567188292944154819e+04
8.685069008782935196e-01 5.487840699944642256e+04
8.705144291091593267e-01 5.332522153073558729e+04
8.725219573400251338e-01 5.256519191578742902e+04
8.745294855708909409e-01 5.107747576826113072e+04
8.765370138017567481e-01 5.034948265118997369e+04
8.785445420326223331e-01 4.892447618531852640e+04
8.805520702634881403e-01 4.753980068852262775e+04
8.825595984943539474e-01 4.686222907466295874e+04
8.845671267252195324e-01 4.361650603363804839e+04
8.865746549560853396e-01 4.424714838607601268e+04
8.885821831869511467e-01 4.424714838607601268e+04
8.905897114178167318e-01 4.361650603363804839e+04
8.925972396486825389e-01 4.238205833241244545e+04
8.946047678795483460e-01 4.177799859200380888e+04
8.966122961104141531e-01 4.059558489100887527e+04
8.986198243412799602e-01 4.001698726182657265e+04
9.006273525721455453e-01 3.888441424240051128e+04
9.026348808030113524e-01 3.724537225006154767e+04
9.046424090338771595e-01 3.671452427386515774e+04
9.066499372647427446e-01 3.567541857253943454e+04
9.086574654956085517e-01 3.466572195875828766e+04
9.106649937264743588e-01 3.417164102377278323e+04
9.126725219573399439e-01 3.320450478236070921e+04
9.146800501882057510e-01 3.226474072681473990e+04
9.166875784190715581e-01 3.180488031241654244e+04
9.186951066499373653e-01 3.090472885693003627e+04
9.207026348808031724e-01 3.003005376339978466e+04
9.227101631116687575e-01 2.960204372343191062e+04
9.247176913425345646e-01 2.876423762319572415e+04
9.267252195734003717e-01 2.795014336759272192e+04
9.287327478042659568e-01 2.755177771449983629e+04
9.307402760351317639e-01 2.677199887026795841e+04
9.327478042659975710e-01 2.601428956551240117e+04
9.347553324968631561e-01 2.564351510055818653e+04
9.367628607277289632e-01 2.456259877714442700e+04
9.387703889585947703e-01 2.421251485897530074e+04
9.407779171894605774e-01 2.352724485395702868e+04
9.427854454203263845e-01 2.253553280091473425e+04
9.447929736511919696e-01 2.189772525529136692e+04
9.468005018820577767e-01 2.127796913400515405e+04
9.488080301129235838e-01 2.097470013251636919e+04
9.508155583437891689e-01 2.038106775071781885e+04
9.528230865746549760e-01 1.952197223538134858e+04
9.548306148055207832e-01 1.896945540308925047e+04
9.568381430363863682e-01 1.816986166911542750e+04
9.588456712672521753e-01 1.765561268384075083e+04
9.608531994981179825e-01 1.691139958064493112e+04
9.628607277289837896e-01 1.619855628335087749e+04
9.648682559598495967e-01 1.596768274656391077e+04
9.668757841907151818e-01 1.551576050306296747e+04
9.688833124215809889e-01 1.486174568753659696e+04
9.708908406524467960e-01 1.444112401311751091e+04
9.728983688833123811e-01 1.403240690204591192e+04
9.749058971141781882e-01 1.363525742772689409e+04
9.769134253450439953e-01 1.324934819936514577e+04
9.789209535759095804e-01 1.269086638877379119e+04
9.809284818067753875e-01 1.233168560459773107e+04
9.829360100376411946e-01 1.181188478115578437e+04
9.849435382685070017e-01 1.164353325847416818e+04
9.869510664993728088e-01 1.099378228477118319e+04
9.889585947302383939e-01 1.083709095041071487e+04
9.909661229611042010e-01 1.023234235384425301e+04
9.929736511919700082e-01 9.801032300068221957e+03
9.949811794228355932e-01 9.387902674199620378e+03
9.969887076537014003e-01 8.992187141310705556e+03
9.989962358845672075e-01 8.613151668750921090e+03
1.001003764115432793e+00 8.369379614437431883e+03
1.003011292346298822e+00 8.016596503127740107e+03
1.005018820577164407e+00 7.789708335668694417e+03
1.007026348808029992e+00 7.461359321828800603e+03
1.009033877038896021e+00 7.146850758779080934e+03
1.011041405269761606e+00 6.845599248762883690e+03
1.013048933500627413e+00 6.748030818444643955e+03
1.015056461731493220e+00 6.280655716119143108e+03
1.017063989962358805e+00 6.191139269520004746e+03
1.019071518193224613e+00 5.845651462734737834e+03
1.021079046424090420e+00 5.680206046158426034e+03
1.023086574654956227e+00 5.363230148259137422e+03
1.025094102885821812e+00 5.137161179525905936e+03
1.027101631116687619e+00 4.991767671756165328e+03
1.029109159347553426e+00 4.781356457149591733e+03
1.031116687578419011e+00 4.646033043515398276e+03
1.033124215809284818e+00 4.324244328030372344e+03
1.035131744040150625e+00 4.141970319873992594e+03
1.037139272271016432e+00 4.024743008361015654e+03
1.039146800501882018e+00 3.800147893584868143e+03
1.041154328732747825e+00 3.639965411836374187e+03
1.043161856963613632e+00 3.486534885058484178e+03
1.045169385194479217e+00 3.436842268879353924e+03
1.047176913425345246e+00 3.198803269012374585e+03
1.049184441656210831e+00 3.063968451893656493e+03
1.051191969887076416e+00 2.977251079136869976e+03
1.053199498117942445e+00 2.851755051087645825e+03
1.055207026348808030e+00 2.731548886955678881e+03
1.057214554579673838e+00 2.542359184819390521e+03
1.059222082810539645e+00 2.435194565145531669e+03
1.061229611041405230e+00 2.332547110386217810e+03
1.063237139272271037e+00 2.234226414613381166e+03
1.065244667503136844e+00 2.109548556428756910e+03
1.067252195734002651e+00 2.020627616349516757e+03
1.069259723964868236e+00 1.963439195201987332e+03
1.071267252195734043e+00 1.880677004924958965e+03
1.073274780426599850e+00 1.801403377042013744e+03
1.075282308657465435e+00 1.725471262912502652e+03
1.077289836888331243e+00 1.652739812237751721e+03
1.079297365119197050e+00 1.473428876774235732e+03
1.081304893350062857e+00 1.494732890724420258e+03
1.083312421580928442e+00 1.494732890724420258e+03
1.085319949811794249e+00 1.473428876774235732e+03
